time [s],position [m],elevation xf [m]
0,0,-0
0.0005,-9.48987243663012e-14,-3.86523451045951e-12
0.001,-4.15498524487564e-13,-1.53942093834291e-11
0.0015,-1.021898973325e-12,-3.44869347110743e-11
0.002,-1.98257467255906e-12,-6.10435488927499e-11
0.0025,-3.37443653074302e-12,-9.49643071505359e-11
0.003,-5.28289229345153e-12,-1.36149569961923e-10
0.0035,-7.80190631784097e-12,-1.84499791417056e-10
0.004,-1.10340585881454e-11,-2.39915507493903e-10
0.0045,-1.50906029661984e-11,-3.02297324261849e-10
0.005,-2.00915246714087e-11,-3.71545906013644e-10
0.0055,-2.61655969829053e-11,-4.47561963323104e-10
0.006,-3.34504371645279e-11,-5.30246241037037e-10
0.0065,-4.20925615957166e-11,-6.19499506200732e-10
0.007,-5.22474401224818e-11,-7.15222535917485e-10
0.0075,-6.4079549603893e-11,-8.17316105158236e-10
0.008,-7.77624266499336e-11,-9.25680974478307e-10
0.0085,-9.34787195685799e-11,-1.04021787773072e-09
0.009,-1.11420239488997e-10,-1.16082750967964e-09
0.0095,-1.31788010671214e-10,-1.28741051357138e-09
0.01,-1.54792319998689e-10,-1.41986746866429e-09
0.0105,-1.80652765624889e-10,-1.55809887772142e-09
0.011,-2.09598304821796e-10,-1.7020051544164e-09
0.0115,-2.41867300959421e-10,-1.85148661074983e-09
0.012,-2.77707569660602e-10,-2.00644344438082e-09
0.0125,-3.17376424106169e-10,-2.16677572593722e-09
0.013,-3.61140719492329e-10,-2.33238338630545e-09
0.0135,-4.0927689662595e-10,-2.50316620385501e-09
0.014,-4.62071024675357e-10,-2.67902379164875e-09
0.0145,-5.19818843046641e-10,-2.85985558465398e-09
0.015,-5.82825802363535e-10,-3.04556082682771e-09
0.0155,-6.51407104630763e-10,-3.23603855832936e-09
0.016,-7.25887742481256e-10,-3.43118760259412e-09
0.0165,-8.06602537561007e-10,-3.6309065533865e-09
0.017,-8.93896178007746e-10,-3.83509376194196e-09
0.0175,-9.88123255040412e-10,-4.04364732397723e-09
0.018,-1.08964829868541e-09,-4.25646506675269e-09
0.0185,-1.19884581257531e-09,-4.47344453610865e-09
0.019,-1.31610030784102e-09,-4.6944829835474e-09
0.0195,-1.44180633612444e-09,-4.91947735310327e-09
0.02,-1.5763685216462e-09,-5.1483242686137e-09
0.0205,-1.7202015924027e-09,-5.38092002050016e-09
0.021,-1.87373041040167e-09,-5.61716055297957e-09
0.0215,-2.03739000100213e-09,-5.85694145096039e-09
0.022,-2.21162558130719e-09,-6.10015792722771e-09
0.0225,-2.3968925876497e-09,-6.34670480938266e-09
0.023,-2.59365670214357e-09,-6.59647652695364e-09
0.0235,-2.80239387827917e-09,-6.84936709845618e-09
0.024,-3.02359036556947e-09,-7.1052701185798e-09
0.0245,-3.2577427333322e-09,-7.36407874515948e-09
0.025,-3.50535789338652e-09,-7.62568568643558e-09
0.0255,-3.76695312193798e-09,-7.88998318820653e-09
0.026,-4.0430560804336e-09,-8.15686302111012e-09
0.0265,-4.33420483541965e-09,-8.42621646751728e-09
0.027,-4.64094787760133e-09,-8.6979343092266e-09
0.0275,-4.96384413974283e-09,-8.97190681449561e-09
0.028,-5.30346301371534e-09,-9.24802372551212e-09
0.0285,-5.6603843665359e-09,-9.52617424559717e-09
0.029,-6.03519855550852e-09,-9.80624702684248e-09
0.0295,-6.4285064422159e-09,-1.00881301574332e-08
0.03,-6.8409194057643e-09,-1.03717111491492e-08
0.0305,-7.27305935483328e-09,-1.06568769249894e-08
0.031,-7.72555873890273e-09,-1.09435138068352e-08
0.0315,-8.19906055838977e-09,-1.12315075029557e-08
0.032,-8.69421837375844e-09,-1.15207430958993e-08
0.0325,-9.21169631388226e-09,-1.18111050301561e-08
0.033,-9.75216908317509e-09,-1.21024771002463e-08
0.0335,-1.03163219675983e-08,-1.23947424381167e-08
0.034,-1.09048508401749e-08,-1.26877835017707e-08
0.0345,-1.151846216495e-08,-1.29814820628407e-08
0.035,-1.21578730002488e-08,-1.32757191949877e-08
0.0355,-1.28238110009497e-08,-1.35703752618712e-08
0.036,-1.35170144195229e-08,-1.38653299056437e-08
0.0365,-1.42382321062693e-08,-1.41604620351499e-08
0.037,-1.49882235084908e-08,-1.44556498144209e-08
0.0375,-1.57677586685773e-08,-1.47507706511503e-08
0.038,-1.65776182211198e-08,-1.50457011853747e-08
0.0385,-1.74185933891177e-08,-1.53403172780209e-08
0.039,-1.8291485978888e-08,-1.56344939999667e-08
0.0395,-1.91971083742452e-08,-1.59281056204625e-08
0.04,-2.01362835296457e-08,-1.62210255966358e-08
0.0405,-2.11098449618409e-08,-1.65131265620226e-08
0.041,-2.2118636741203e-08,-1.68042803161493e-08
0.0415,-2.31635134814726e-08,-1.70943578136174e-08
0.042,-2.42453403288434e-08,-1.73832291534829e-08
0.0425,-2.53649929497408e-08,-1.76707635686293e-08
0.043,-2.65233575176118e-08,-1.79568294156126e-08
0.0435,-2.77213306989346e-08,-1.82412941641121e-08
0.044,-2.89598196379201e-08,-1.85240243867375e-08
0.0445,-3.02397419401019e-08,-1.8804885749284e-08
0.045,-3.1562025655282e-08,-1.90837429999994e-08
0.0455,-3.29276092591402e-08,-1.93604599608176e-08
0.046,-3.4337441633768e-08,-1.96348995165943e-08
0.0465,-3.57924820473467e-08,-1.9906923606187e-08
0.047,-3.72937001327807e-08,-2.01763932126034e-08
0.0475,-3.88420758648789e-08,-2.04431683536145e-08
0.048,-4.04385995371639e-08,-2.07071080731864e-08
0.0485,-4.20842717371702e-08,-2.09680704312019e-08
0.049,-4.3780103320735e-08,-2.12259124955611e-08
0.0495,-4.55271153854902e-08,-2.14804903328765e-08
0.05,-4.73263392429861e-08,-2.1731658999753e-08
0.0505,-4.91788163900853e-08,-2.1979272534045e-08
0.051,-5.10855984789259e-08,-2.22231839471074e-08
0.0515,-5.30477472864182e-08,-2.24632452149701e-08
0.052,-5.50663346818187e-08,-2.26993072697739e-08
0.0525,-5.7142442594413e-08,-2.29312199929061e-08
0.053,-5.92771629791032e-08,-2.31588322061068e-08
0.0535,-6.14715977812555e-08,-2.33819916645302e-08
0.054,-6.37268589012263e-08,-2.36005450483809e-08
0.0545,-6.60440681564626e-08,-2.38143379560796e-08
0.055,-6.84243572438038e-08,-2.4023214897112e-08
0.0555,-7.08688677000509e-08,-2.42270192842003e-08
0.056,-7.33787508619605e-08,-2.442559342707e-08
0.0565,-7.59551678244118e-08,-2.461877852543e-08
0.057,-7.85992893987448e-08,-2.48064146621667e-08
0.0575,-8.13122960685913e-08,-2.49883407968559e-08
0.058,-8.40953779459264e-08,-2.51643947596868e-08
0.0585,-8.69497347255265e-08,-2.53344132456541e-08
0.059,-8.98765756381489e-08,-2.54982318070326e-08
0.0595,-9.28771194033628e-08,-2.56556848493744e-08
0.06,-9.59525941803635e-08,-2.58066056248073e-08
0.0605,-9.91042375190218e-08,-2.59508262268385e-08
0.061,-1.02333296308502e-07,-2.60881775848593e-08
0.0615,-1.05641026725973e-07,-2.62184894591794e-08
0.062,-1.09028694183511e-07,-2.63415904360069e-08
0.0625,-1.12497573274593e-07,-2.64573079221979e-08
0.063,-1.16048947719108e-07,-2.65654681413882e-08
0.0635,-1.19684110307442e-07,-2.66658961287064e-08
0.064,-1.23404362843568e-07,-2.67584157270269e-08
0.0645,-1.27211016086936e-07,-2.68428495826531e-08
0.065,-1.31105389694065e-07,-2.69190191412672e-08
0.0655,-1.35088812158095e-07,-2.69867446446435e-08
0.066,-1.39162620747543e-07,-2.70458451257243e-08
0.0665,-1.43328161444804e-07,-2.70961384069976e-08
0.067,-1.47586788882722e-07,-2.71374410962555e-08
0.0675,-1.51939866280622e-07,-2.71695685834927e-08
0.068,-1.56388765379313e-07,-2.71923350378687e-08
0.0685,-1.60934866374563e-07,-2.72055534060197e-08
0.069,-1.65579557850554e-07,-2.72090354083935e-08
0.0695,-1.70324236711188e-07,-2.72025915374936e-08
0.07,-1.751703081112e-07,-2.71860310556994e-08
0.0705,-1.80119185385779e-07,-2.71591619933524e-08
0.071,-1.85172289980027e-07,-2.71217911463154e-08
0.0715,-1.90331051375796e-07,-2.70737240756411e-08
0.072,-1.95596907019367e-07,-2.70147651046859e-08
0.0725,-2.00971302246946e-07,-2.69447173197057e-08
0.073,-2.06455690209239e-07,-2.68633825657189e-08
0.0735,-2.12051531795671e-07,-2.67705614503185e-08
0.074,-2.17760295557226e-07,-2.66660533385902e-08
0.0745,-2.23583457628072e-07,-2.65496563550545e-08
0.075,-2.29522501646842e-07,-2.64211673823287e-08
0.0755,-2.35578918675933e-07,-2.62803820620631e-08
0.076,-2.41754207121001e-07,-2.61270947938928e-08
0.0765,-2.4804987264871e-07,-2.59610987364269e-08
0.077,-2.54467428103588e-07,-2.57821858079361e-08
0.0775,-2.61008393424019e-07,-2.55901466858687e-08
0.078,-2.67674295557734e-07,-2.5384770808859e-08
0.0785,-2.74466668375409e-07,-2.51658463771224e-08
0.079,-2.81387052583934e-07,-2.49331603543332e-08
0.0795,-2.88436995638947e-07,-2.46864984678793e-08
0.08,-2.9561805165523e-07,-2.4425645211588e-08
0.0805,-3.02931781317752e-07,-2.41503838475243e-08
0.081,-3.10379751790764e-07,-2.38604964064843e-08
0.0815,-3.17963536626348e-07,-2.35557636918755e-08
0.082,-3.25684715671337e-07,-2.32359652813956e-08
0.0825,-3.33544874974593e-07,-2.290087952948e-08
0.083,-3.41545606692165e-07,-2.25502835699165e-08
0.0835,-3.49688508991739e-07,-2.21839533188455e-08
0.084,-3.57975185957287e-07,-2.18016634791997e-08
0.0845,-3.66407247490789e-07,-2.14031875404857e-08
0.085,-3.74986309215199e-07,-2.09882977866253e-08
0.0855,-3.83713992374853e-07,-2.05567652962282e-08
0.086,-3.92591923735347e-07,-2.01083599485641e-08
0.0865,-4.01621735484118e-07,-1.96428504262885e-08
0.087,-4.10805065126775e-07,-1.91600042197555e-08
0.0875,-4.20143555386539e-07,-1.86595876324645e-08
0.088,-4.29638854099431e-07,-1.81413657843394e-08
0.0885,-4.39292614110586e-07,-1.76051026169757e-08
0.089,-4.49106493168729e-07,-1.70505608996433e-08
0.0895,-4.590821538211e-07,-1.64775022319067e-08
0.09,-4.69221263304641e-07,-1.58856870515588e-08
0.0905,-4.79525493440176e-07,-1.52748746387112e-08
0.091,-4.89996520523132e-07,-1.46448231215567e-08
0.0915,-5.00636025213231e-07,-1.39952894819034e-08
0.092,-5.11445692425343e-07,-1.33260295624631e-08
0.0925,-5.22427211218147e-07,-1.26367980714315e-08
0.093,-5.33582274681146e-07,-1.19273485901916e-08
0.0935,-5.44912579823352e-07,-1.11974335785703e-08
0.094,-5.56419827458695e-07,-1.04468043827296e-08
0.0945,-5.68105722091486e-07,-9.6752112414115e-09
0.095,-5.7997197180199e-07,-8.88240329253342e-09
0.0955,-5.92020288129593e-07,-8.06812858183536e-09
0.096,-6.04252385956354e-07,-7.23213406837305e-09
0.0965,-6.1666998338929e-07,-6.37416563358955e-09
0.097,-6.29274801641974e-07,-5.49396808886263e-09
0.0975,-6.42068564914932e-07,-4.59128518174307e-09
0.098,-6.55053000276885e-07,-3.66585960658108e-09
0.0985,-6.68229837542359e-07,-2.71743301019135e-09
0.099,-6.81600809151088e-07,-1.74574600239957e-09
0.0995,-6.95167650045581e-07,-7.50538163061836e-10
0.1,-7.08932097548643e-07,2.68451948823914e-10
0.1005,-7.22895891238687e-07,1.31148678652479e-09
0.101,-7.37060772826e-07,2.37882980528428e-09
0.1015,-7.51428486027153e-07,3.47074545548189e-09
0.102,-7.66000776439384e-07,4.58749917138651e-09
0.1025,-7.80779391413249e-07,5.72935736204331e-09
0.103,-7.95766079925856e-07,6.89658740303253e-09
0.1035,-8.10962592452921e-07,8.08945762466236e-09
0.104,-8.26370680840206e-07,9.30823730414572e-09
0.1045,-8.41992098172637e-07,1.05531966541436e-08
0.105,-8.57828598646219e-07,1.18246068125073e-08
0.1055,-8.7388193743573e-07,1.31227398340739e-08
0.106,-8.9015387056368e-07,1.4447868676893e-08
0.1065,-9.06646154768155e-07,1.58002671942281e-08
0.107,-9.23360547370724e-07,1.71802101229357e-08
0.1075,-9.40298806142205e-07,1.85879730732369e-08
0.108,-9.57462689168724e-07,2.00238325154812e-08
0.1085,-9.74853954717264e-07,2.14880657730443e-08
0.109,-9.92474361100081e-07,2.29809510072971e-08
0.1095,-1.01032566653931e-06,2.45027672067677e-08
0.11,-1.02840962903e-06,2.60537941796194e-08
0.1105,-1.04672800620281e-06,2.76343125356744e-08
0.111,-1.06528255518698e-06,2.92446036802723e-08
0.1115,-1.08407503247113e-06,3.08849497985416e-08
0.112,-1.10310719376519e-06,3.2555633846146e-08
0.1125,-1.12238079386087e-06,3.42569395356448e-08
0.113,-1.14189758649081e-06,3.5989151323783e-08
0.1135,-1.16165932418868e-06,3.77525544019053e-08
0.114,-1.18166775814886e-06,3.95474346795451e-08
0.1145,-1.20192463808277e-06,4.13740787754941e-08
0.115,-1.22243171207879e-06,4.32327740033293e-08
0.1155,-1.24319072645851e-06,4.51238083580725e-08
0.116,-1.26420342563307e-06,4.7047470506213e-08
0.1165,-1.28547155196146e-06,4.90040497680436e-08
0.117,-1.30699684560402e-06,5.0993836110671e-08
0.1175,-1.3287810443784e-06,5.30171201285431e-08
0.118,-1.35082588361611e-06,5.50741930349551e-08
0.1185,-1.37313309601412e-06,5.71653466470508e-08
0.119,-1.39570441149111e-06,5.92908733714622e-08
0.1195,-1.41854155704014e-06,6.14510661916863e-08
0.12,-1.44164625658054e-06,6.36462186553006e-08
0.1205,-1.46502023081298e-06,6.58766248594011e-08
0.121,-1.48866519706951e-06,6.81425794367422e-08
0.1215,-1.51258286916592e-06,7.04443775416612e-08
0.122,-1.53677495725365e-06,7.27823148373068e-08
0.1225,-1.56124316767022e-06,7.51566874798955e-08
0.123,-1.58598920278955e-06,7.75677921078414e-08
0.1235,-1.61101476087391e-06,8.00159258224097e-08
0.124,-1.63632153592013e-06,8.25013861802726e-08
0.1245,-1.66191121751344e-06,8.5024471172666e-08
0.125,-1.68778549067356e-06,8.75854792156096e-08
0.1255,-1.713946035704e-06,9.0184709132921e-08
0.126,-1.74039452804227e-06,9.28224601436504e-08
0.1265,-1.76713263810499e-06,9.54990318453881e-08
0.127,-1.79416203113858e-06,9.82147242033017e-08
0.1275,-1.82148436706538e-06,1.00969837531534e-07
0.128,-1.84910130033053e-06,1.03764672480767e-07
0.1285,-1.87701447974926e-06,1.0659953002242e-07
0.129,-1.90522554835525e-06,1.09474711435567e-07
0.1295,-1.93373614324426e-06,1.12390518290703e-07
0.13,-1.9625478954211e-06,1.15347252435771e-07
0.1305,-1.9916624296476e-06,1.18345215979207e-07
0.131,-2.02108136428498e-06,1.21384711279103e-07
0.1315,-2.0508063111426e-06,1.24466040923949e-07
0.132,-2.08083887531905e-06,1.27589507720111e-07
0.1325,-2.11118065505236e-06,1.30755414676248e-07
0.133,-2.14183324156112e-06,1.3396406498944e-07
0.1335,-2.17279821888946e-06,1.37215762026905e-07
0.134,-2.20407716375342e-06,1.40510809314272e-07
0.1345,-2.23567164538342e-06,1.4384951052061e-07
0.135,-2.2675832253694e-06,1.47232169438005e-07
0.1355,-2.29981345750316e-06,1.50659089975095e-07
0.136,-2.33236388762602e-06,1.54130576133137e-07
0.1365,-2.36523605346847e-06,1.57646931997959e-07
0.137,-2.39843148449607e-06,1.61208461719873e-07
0.1375,-2.43195170175225e-06,1.64815469500941e-07
0.138,-2.46579821770231e-06,1.68468259580694e-07
0.1385,-2.49997253607604e-06,1.72167136216076e-07
0.139,-2.53447615171072e-06,1.75912403673384e-07
0.1395,-2.5693105503977e-06,1.79704366206829e-07
0.14,-2.60447720871984e-06,1.83543328046962e-07
0.1405,-2.63997759390002e-06,1.87429593383931e-07
0.141,-2.67581316364127e-06,1.91363466354867e-07
0.1415,-2.71198536597082e-06,1.95345251022782e-07
0.142,-2.74849563908317e-06,1.99375251367039e-07
0.1425,-2.78534541118331e-06,2.0345377127083e-07
0.143,-2.82253610032938e-06,2.07581114494482e-07
0.1435,-2.8600691142765e-06,2.11757584672708e-07
0.144,-2.89794585031936e-06,2.15983485291581e-07
0.1445,-2.9361676951355e-06,2.2025911967817e-07
0.145,-2.97473602463026e-06,2.24584790984282e-07
0.1455,-3.01365220377673e-06,2.28960802167341e-07
0.146,-3.05291758646329e-06,2.33387455983419e-07
0.1465,-3.09253351533368e-06,2.37865054964514e-07
0.147,-3.13250132163234e-06,2.42393901407856e-07
0.1475,-3.17282232504927e-06,2.4697429736128e-07
0.148,-3.21349783356084e-06,2.51606544604688e-07
0.1485,-3.25452914327641e-06,2.56290944639698e-07
0.149,-3.29591753828261e-06,2.61027798672835e-07
0.1495,-3.33766429048495e-06,2.65817407600751e-07
0.15,-3.3797706594554e-06,2.70660071994297e-07
0.1505,-3.42223789227637e-06,2.75556092087285e-07
0.151,-3.46506722338388e-06,2.80505767758779e-07
0.1515,-3.50825987441495e-06,2.85509398518744e-07
0.152,-3.55181705405098e-06,2.90567283496707e-07
0.1525,-3.59573995786447e-06,2.95679721422134e-07
0.153,-3.64002976816514e-06,3.00847010616145e-07
0.1535,-3.68468765384463e-06,3.06069448972315e-07
0.154,-3.72971477022345e-06,3.11347333943764e-07
0.1545,-3.77511225889772e-06,3.16680962530021e-07
0.155,-3.82088124758659e-06,3.22070631260875e-07
0.1555,-3.86702284997676e-06,3.27516636185319e-07
0.156,-3.91353816557467e-06,3.33019272854885e-07
0.1565,-3.96042827954888e-06,3.38578836310299e-07
0.157,-4.00769426258123e-06,3.441956210675e-07
0.1575,-4.05533717071544e-06,3.49869921104047e-07
0.158,-4.1033580452043e-06,3.55602029846195e-07
0.1585,-4.15175791236149e-06,3.6139224015534e-07
0.159,-4.20053778340697e-06,3.67240844309466e-07
0.1595,-4.24969865432066e-06,3.73148133998457e-07
0.16,-4.29924150569076e-06,3.79114400302982e-07
0.1605,-4.34916730256608e-06,3.85139933684289e-07
0.161,-4.39947699430387e-06,3.91225023969646e-07
0.1615,-4.4501715144258e-06,3.97369960342247e-07
0.162,-4.50125178046774e-06,4.03575031324556e-07
0.1625,-4.55271869383066e-06,4.09840524766029e-07
0.163,-4.60457313963691e-06,4.16166727830537e-07
0.1635,-4.65681598658071e-06,4.22553926984453e-07
0.164,-4.70944808678428e-06,4.29002407981719e-07
0.1645,-4.7624702756492e-06,4.35512455852061e-07
0.165,-4.81588337171639e-06,4.42084354889461e-07
0.1655,-4.86968817651728e-06,4.48718388639334e-07
0.166,-4.92388547442927e-06,4.55414839882471e-07
0.1665,-4.97847603253639e-06,4.62173990629167e-07
0.167,-5.03346060048343e-06,4.68996122100236e-07
0.1675,-5.08883991033332e-06,4.75881514718493e-07
0.168,-5.14461467642504e-06,4.82830448099424e-07
0.1685,-5.20078559523796e-06,4.89843201030069e-07
0.169,-5.25735334524295e-06,4.96920051467843e-07
0.1695,-5.31431858676731e-06,5.04061276520095e-07
0.17,-5.37168196185524e-06,5.11267152439093e-07
0.1705,-5.4294440941279e-06,5.18537954606602e-07
0.171,-5.48760558864583e-06,5.25873957520072e-07
0.1715,-5.54616703177198e-06,5.33275434788244e-07
0.172,-5.60512899103451e-06,5.40742659113102e-07
0.1725,-5.66449201499036e-06,5.48275902282646e-07
0.173,-5.72425663309146e-06,5.55875435157655e-07
0.1735,-5.78442335554894e-06,5.63541527663068e-07
0.174,-5.84499267319859e-06,5.71274448772685e-07
0.1745,-5.90596505736899e-06,5.79074466503023e-07
0.175,-5.96734095974982e-06,5.86941847903139e-07
0.1755,-6.02912081225591e-06,5.94876859034889e-07
0.176,-6.09130502690294e-06,6.02879764974448e-07
0.1765,-6.15389399567159e-06,6.10950829797418e-07
0.177,-6.21688809038012e-06,6.19090316561197e-07
0.1775,-6.28028766255777e-06,6.27298487307966e-07
0.178,-6.34409304331384e-06,6.35575603043771e-07
0.1785,-6.40830454321256e-06,6.43921923736628e-07
0.179,-6.4729224521466e-06,6.52337708297788e-07
0.1795,-6.53794703921191e-06,6.60823214579205e-07
0.18,-6.60337855258319e-06,6.69378699362679e-07
0.1805,-6.66921721938946e-06,6.78004418345771e-07
0.181,-6.73546324559494e-06,6.86700626138057e-07
0.1815,-6.8021168158713e-06,6.95467576250447e-07
0.182,-6.86917809348253e-06,7.04305521082585e-07
0.1825,-6.9366472201612e-06,7.1321471191436e-07
0.183,-7.00452431599123e-06,7.22195398902475e-07
0.1835,-7.07280947928816e-06,7.31247831065196e-07
0.184,-7.14150278648621e-06,7.40372256276151e-07
0.1845,-7.2106042920154e-06,7.49568921254109e-07
0.185,-7.28011402819065e-06,7.58838071558633e-07
0.1855,-7.35003200509822e-06,7.68179951576016e-07
0.186,-7.42035821047734e-06,7.77594804511506e-07
0.1865,-7.49109260961569e-06,7.87082872386704e-07
0.187,-7.56223514522995e-06,7.96644396025139e-07
0.1875,-7.63378573736084e-06,8.06279615045796e-07
0.188,-7.70574428326108e-06,8.15988767856383e-07
0.1885,-7.77811065729025e-06,8.25772091649283e-07
0.189,-7.85088471080292e-06,8.35629822381075e-07
0.1895,-7.92406627204775e-06,8.4556219477828e-07
0.19,-7.99765514605615e-06,8.55569442322094e-07
0.1905,-8.07165111454511e-06,8.65651797245887e-07
0.191,-8.14605393581089e-06,8.75809490522842e-07
0.1915,-8.22086334462523e-06,8.86042751861447e-07
0.192,-8.29607905213871e-06,8.96351809699341e-07
0.1925,-8.37170074577755e-06,9.06736891194541e-07
0.193,-8.44772808914981e-06,9.17198222216484e-07
0.1935,-8.52416072193888e-06,9.27736027342501e-07
0.194,-8.60099825982037e-06,9.38350529849836e-07
0.1945,-8.67824029435738e-06,9.49041951709795e-07
0.195,-8.75588639290708e-06,9.59810513578322e-07
0.1955,-8.83393609853363e-06,9.70656434793554e-07
0.196,-8.91238892991333e-06,9.81579933364162e-07
0.1965,-8.99124438124162e-06,9.92581225968223e-07
0.197,-9.07050192214719e-06,1.0036605279444e-06
0.1975,-9.15016099760744e-06,1.01481805328547e-06
0.198,-9.23022102785316e-06,1.02605401463376e-06
0.1985,-9.31068140829126e-06,1.03736862327135e-06
0.199,-9.39154150941691e-06,1.04876208912263e-06
0.1995,-9.47280067672828e-06,1.0602346207371e-06
0.2,-9.55445823065154e-06,1.07178642528993e-06
0.2005,-9.6365134664533e-06,1.08341770858356e-06
